#####################################################################
#  MagAO-X Filter Curve
#
# magaox_wfs-open_bs-65-35_atm.dat
#
# WFS bandpass with 65/35 B/S, with atmosphere
#
# Characteristics:
#    lambda_0:  7.91272e-07 [central wavelength, in m]
#    w_eff:     2.96486e-07 [effective width, in m]
#    FWHM:      3.614e-07 [full-width at half max., in m]
#    Trans_max: 0.0878519 [maximum transmission]
#
# Vega Zero Point Flux Densities (calculated):
#    f_lambda_0: 0.0134802 [W/m^3 above atm]
#    f_nu_0:     2552.65 [Jy above atm]
#    f_phot_0:   5.06099e+16 [photons/s/m^3 above atm]
#
# Vega Zero Point Fluxes (calculated):
#    F_W_0: 1.21469e-07 [W at telescope aperture]
#    F_phot_0:   4.0064e+10 [photons/s at detector]
#
#####################################################################
# lambda [m]             transmission
#-------------------------------------------------
  5.98e-07          0
  5.99e-07          0.0106524
  6e-07          0.0282545
  6.01e-07          0.0338002
  6.02e-07          0.0352301
  6.03e-07          0.0370704
  6.04e-07          0.0384843
  6.05e-07          0.0397579
  6.06e-07          0.0411479
  6.07e-07          0.0425273
  6.08e-07          0.0436473
  6.09e-07          0.0447523
  6.1e-07          0.0461345
  6.11e-07          0.0474238
  6.12e-07          0.0490015
  6.13e-07          0.0502556
  6.14e-07          0.0515682
  6.15e-07          0.053231
  6.16e-07          0.0546931
  6.17e-07          0.0555212
  6.18e-07          0.0563796
  6.19e-07          0.0576213
  6.2e-07          0.0585383
  6.21e-07          0.0596771
  6.22e-07          0.0605933
  6.23e-07          0.0613195
  6.24e-07          0.0623439
  6.25e-07          0.0631104
  6.26e-07          0.0642402
  6.27e-07          0.0653698
  6.28e-07          0.0663616
  6.29e-07          0.0676588
  6.3e-07          0.068222
  6.31e-07          0.0690506
  6.32e-07          0.0697791
  6.33e-07          0.0704249
  6.34e-07          0.0712208
  6.35e-07          0.0722545
  6.36e-07          0.073065
  6.37e-07          0.0738022
  6.38e-07          0.0743791
  6.39e-07          0.0750746
  6.4e-07          0.0761504
  6.41e-07          0.0770021
  6.42e-07          0.077812
  6.43e-07          0.0784673
  6.44e-07          0.0791132
  6.45e-07          0.0797452
  6.46e-07          0.0803825
  6.47e-07          0.0806332
  6.48e-07          0.0810521
  6.49e-07          0.081659
  6.5e-07          0.0825132
  6.51e-07          0.0833525
  6.52e-07          0.0837171
  6.53e-07          0.0842397
  6.54e-07          0.0845096
  6.55e-07          0.0844062
  6.56e-07          0.0840419
  6.57e-07          0.0849728
  6.58e-07          0.0852049
  6.59e-07          0.0854439
  6.6e-07          0.0857197
  6.61e-07          0.0862576
  6.62e-07          0.0865349
  6.63e-07          0.0866885
  6.64e-07          0.0870655
  6.65e-07          0.0872562
  6.66e-07          0.0875369
  6.67e-07          0.0876339
  6.68e-07          0.0876971
  6.69e-07          0.087626
  6.7e-07          0.0876017
  6.71e-07          0.0877791
  6.72e-07          0.0878519
  6.73e-07          0.0877996
  6.74e-07          0.0876771
  6.75e-07          0.0875393
  6.76e-07          0.0876471
  6.77e-07          0.0872704
  6.78e-07          0.0870651
  6.79e-07          0.0870002
  6.8e-07          0.0869656
  6.81e-07          0.0869389
  6.82e-07          0.0868306
  6.83e-07          0.0869541
  6.84e-07          0.0870027
  6.85e-07          0.0870334
  6.86e-07          0.0870254
  6.87e-07          1.05946e-07
  6.88e-07          0.0857716
  6.89e-07          0.0858549
  6.9e-07          0.0857875
  6.91e-07          0.0852663
  6.92e-07          0.0586463
  6.93e-07          0.0845063
  6.94e-07          0.0834004
  6.95e-07          0.0831559
  6.96e-07          0.0830892
  6.97e-07          0.0829527
  6.98e-07          0.0826898
  6.99e-07          0.0824965
  7e-07          0.0811712
  7.01e-07          0.0822489
  7.02e-07          0.0819642
  7.03e-07          0.0813853
  7.04e-07          0.0812218
  7.05e-07          0.0802087
  7.06e-07          0.0799558
  7.07e-07          0.0797592
  7.08e-07          0.0791381
  7.09e-07          0.0782607
  7.1e-07          0.0782307
  7.11e-07          0.0783473
  7.12e-07          0.0781529
  7.13e-07          0.076996
  7.14e-07          0.0767823
  7.15e-07          0.0767062
  7.16e-07          0.0763989
  7.17e-07          0.0698462
  7.18e-07          0.075287
  7.19e-07          0.0751746
  7.2e-07          0.0738703
  7.21e-07          0.0758233
  7.22e-07          0.0607601
  7.23e-07          0.0751199
  7.24e-07          0.0738166
  7.25e-07          0.0750161
  7.26e-07          0.0617705
  7.27e-07          0.0735666
  7.28e-07          0.0680963
  7.29e-07          0.0712067
  7.3e-07          0.0737671
  7.31e-07          0.0738734
  7.32e-07          0.0715149
  7.33e-07          0.0737514
  7.34e-07          0.073828
  7.35e-07          0.0716384
  7.36e-07          0.0730748
  7.37e-07          0.0729061
  7.38e-07          0.072107
  7.39e-07          0.0723863
  7.4e-07          0.0721871
  7.41e-07          0.0721715
  7.42e-07          0.0718752
  7.43e-07          0.0722041
  7.44e-07          0.0721212
  7.45e-07          0.0715782
  7.46e-07          0.0714194
  7.47e-07          0.0712191
  7.48e-07          0.0710439
  7.49e-07          0.0708767
  7.5e-07          0.0707111
  7.51e-07          0.0703306
  7.52e-07          0.0700491
  7.53e-07          0.069924
  7.54e-07          0.0698269
  7.55e-07          0.0696385
  7.56e-07          0.0694364
  7.57e-07          0.0690446
  7.58e-07          0.0688336
  7.59e-07          0.0685712
  7.6e-07          0.059425
  7.61e-07          2.49289e-36
  7.62e-07          0.0671188
  7.63e-07          0.0393249
  7.64e-07          0.0647809
  7.65e-07          0.0658595
  7.66e-07          0.0668415
  7.67e-07          0.0669385
  7.68e-07          0.0658419
  7.69e-07          0.0663718
  7.7e-07          0.0660606
  7.71e-07          0.0658085
  7.72e-07          0.0655856
  7.73e-07          0.0652697
  7.74e-07          0.0652341
  7.75e-07          0.0652384
  7.76e-07          0.0652543
  7.77e-07          0.0653206
  7.78e-07          0.0651286
  7.79e-07          0.0650685
  7.8e-07          0.0650177
  7.81e-07          0.0649455
  7.82e-07          0.0647509
  7.83e-07          0.0644598
  7.84e-07          0.0643897
  7.85e-07          0.0642802
  7.86e-07          0.0641957
  7.87e-07          0.0640935
  7.88e-07          0.0640008
  7.89e-07          0.0638592
  7.9e-07          0.0636439
  7.91e-07          0.0634547
  7.92e-07          0.0630622
  7.93e-07          0.062966
  7.94e-07          0.0628023
  7.95e-07          0.061494
  7.96e-07          0.0623233
  7.97e-07          0.0622933
  7.98e-07          0.0622692
  7.99e-07          0.062218
  8e-07          0.0620556
  8.01e-07          0.0604181
  8.02e-07          0.0624338
  8.03e-07          0.0558513
  8.04e-07          0.0624523
  8.05e-07          0.0628844
  8.06e-07          0.0629547
  8.07e-07          0.0629314
  8.08e-07          0.0630753
  8.09e-07          0.063128
  8.1e-07          0.0631876
  8.11e-07          0.0600448
  8.12e-07          0.0632803
  8.13e-07          0.0633464
  8.14e-07          0.0633217
  8.15e-07          0.063009
  8.16e-07          0.061084
  8.17e-07          0.0629088
  8.18e-07          0.0590856
  8.19e-07          0.0631063
  8.2e-07          0.00788819
  8.21e-07          0.0640664
  8.22e-07          0.0629534
  8.23e-07          0.0584086
  8.24e-07          0.0637584
  8.25e-07          0.0638639
  8.26e-07          0.0630197
  8.27e-07          0.0638021
  8.28e-07          0.0632422
  8.29e-07          0.0569101
  8.3e-07          0.0633964
  8.31e-07          0.0629944
  8.32e-07          0.0626106
  8.33e-07          0.0633749
  8.34e-07          0.0630511
  8.35e-07          0.0631607
  8.36e-07          0.0627263
  8.37e-07          0.0629169
  8.38e-07          0.0630276
  8.39e-07          0.0620651
  8.4e-07          0.062315
  8.41e-07          0.0632285
  8.42e-07          0.0630969
  8.43e-07          0.0635613
  8.44e-07          0.0641118
  8.45e-07          0.0643862
  8.46e-07          0.0645381
  8.47e-07          0.0645038
  8.48e-07          0.0644826
  8.49e-07          0.0647648
  8.5e-07          0.0648795
  8.51e-07          0.0650523
  8.52e-07          0.0650917
  8.53e-07          0.0655501
  8.54e-07          0.0658844
  8.55e-07          0.0662929
  8.56e-07          0.0665807
  8.57e-07          0.0668746
  8.58e-07          0.0671022
  8.59e-07          0.0673574
  8.6e-07          0.0676513
  8.61e-07          0.0677489
  8.62e-07          0.0677332
  8.63e-07          0.0676885
  8.64e-07          0.0676314
  8.65e-07          0.0675862
  8.66e-07          0.0677686
  8.67e-07          0.0678251
  8.68e-07          0.0678566
  8.69e-07          0.0679491
  8.7e-07          0.0680508
  8.71e-07          0.0682888
  8.72e-07          0.0685394
  8.73e-07          0.0688277
  8.74e-07          0.0690728
  8.75e-07          0.0692663
  8.76e-07          0.069466
  8.77e-07          0.0696303
  8.78e-07          0.0698014
  8.79e-07          0.069944
  8.8e-07          0.0701109
  8.81e-07          0.0700023
  8.82e-07          0.0699097
  8.83e-07          0.0698582
  8.84e-07          0.0697811
  8.85e-07          0.0697803
  8.86e-07          0.0691588
  8.87e-07          0.0697737
  8.88e-07          0.0685979
  8.89e-07          0.0694756
  8.9e-07          0.0692639
  8.91e-07          0.0665698
  8.92e-07          0.0622224
  8.93e-07          0.0691117
  8.94e-07          0.069
  8.95e-07          0.0688199
  8.96e-07          0.0683068
  8.97e-07          0.0683552
  8.98e-07          0.0683842
  8.99e-07          0.0128506
  9e-07          0.0684347
  9.01e-07          0.00690951
  9.02e-07          0.0658588
  9.03e-07          0.0679747
  9.04e-07          0.0684503
  9.05e-07          0.0652277
  9.06e-07          0.0682855
  9.07e-07          0.0671821
  9.08e-07          0.0679877
  9.09e-07          0.0647321
  9.1e-07          0.0672657
  9.11e-07          0.0574912
  9.12e-07          0.0633413
  9.13e-07          0.0654231
  9.14e-07          0.0639795
  9.15e-07          0.065638
  9.16e-07          0.0650114
  9.17e-07          0.0638219
  9.18e-07          0.0640094
  9.19e-07          0.0639393
  9.2e-07          0.0642363
  9.21e-07          0.063599
  9.22e-07          0.0477072
  9.23e-07          0.0635555
  9.24e-07          0.0627647
  9.25e-07          0.0632249
  9.26e-07          0.0630646
  9.27e-07          0.062399
  9.28e-07          0.0461939
  9.29e-07          0.0612873
  9.3e-07          0.050664
  9.31e-07          0.0561612
  9.32e-07          0.0511673
  9.33e-07          0.0482459
  9.34e-07          0.0519477
  9.35e-07          0.0553828
  9.36e-07          6.27091e-05
  9.37e-07          0.0465561
  9.38e-07          0.00739044
  9.39e-07          0.0428995
  9.4e-07          0.057262
  9.41e-07          0.0560082
  9.42e-07          0.023819
  9.43e-07          0.0276249
  9.44e-07          0.0286536
  9.45e-07          0.0537146
  9.46e-07          0.0520846
  9.47e-07          0.0524552
  9.48e-07          0.05311
  9.49e-07          0.0359761
  9.5e-07          1.18957e-05
  9.51e-07          0.0517125
  9.52e-07          0.00468098
  9.53e-07          0.0403568
  9.54e-07          0.0509434
  9.55e-07          0.0464026
  9.56e-07          0.000507838
  9.57e-07          0.0482369
  9.58e-07          0.0490297
  9.59e-07          0.046183
  9.6e-07          0.0470376
  9.61e-07          0.0482802
  9.62e-07          0.0482661
  9.63e-07          0.0474018
  9.64e-07          2.11144e-05
  9.65e-07          0.0464215
  9.66e-07          0.00952164
  9.67e-07          0.0382436
  9.68e-07          0.0451049
  9.69e-07          0.0445005
  9.7e-07          0.0436193
  9.71e-07          0.0432578
  9.72e-07          0.0427302
  9.73e-07          0.0420615
  9.74e-07          0.0364771
  9.75e-07          0.0410526
  9.76e-07          0.0374055
  9.77e-07          0.0402773
  9.78e-07          0.03956
  9.79e-07          0.0379095
  9.8e-07          0.0388453
  9.81e-07          0.0384134
  9.82e-07          0.037717
  9.83e-07          0.0372962
  9.84e-07          0.0368773
  9.85e-07          0.0362363
  9.86e-07          0.0340281
  9.87e-07          0.0351095
  9.88e-07          0.0346725
  9.89e-07          0.0341356
  9.9e-07          0.0332412
  9.91e-07          0.0329698
  9.92e-07          0.0325265
  9.93e-07          0.0318663
  9.94e-07          0.0315117
  9.95e-07          0.0309812
  9.96e-07          0.0303955
  9.97e-07          0.0293315
  9.98e-07          0.0293505
  9.99e-07          0.0288774
  1e-06          0.0283003
  1.001e-06          0.0278148
  1.002e-06          0.027156
  1.003e-06          0.0267363
  1.004e-06          0.0258725
  1.005e-06          0.0255503
  1.006e-06          0.0250278
  1.007e-06          0.0245755
  1.008e-06          0.0240942
  1.009e-06          0.02309
  1.01e-06          0.0231172
  1.011e-06          0.0226712
  1.012e-06          0.0223172
  1.013e-06          0.0219373
  1.014e-06          0.0215107
  1.015e-06          0.0210819
  1.016e-06          0.0207004
  1.017e-06          0.0203398
  1.018e-06          0.0199453
  1.019e-06          0.0195029
  1.02e-06          0.0191075
  1.021e-06          0.0187043
  1.022e-06          0.0182486
  1.023e-06          0.0177911
  1.024e-06          0.0168035
  1.025e-06          0.0169215
  1.026e-06          0.0164978
  1.027e-06          0.015994
  1.028e-06          0.0155434
  1.029e-06          0.0150907
  1.03e-06          0.0146709
  1.031e-06          0.0141831
  1.032e-06          0.013797
  1.033e-06          0.0133811
  1.034e-06          0.0130206
  1.035e-06          0.0126284
  1.036e-06          0.0122434
  1.037e-06          0.0119142
  1.038e-06          0.011548
  1.039e-06          0.0112183
  1.04e-06          0.0108325
  1.041e-06          0.0105067
  1.042e-06          0.0101652
  1.043e-06          0.00983287
  1.044e-06          0.00946325
  1.045e-06          0.00914267
  1.046e-06          0.00880772
  1.047e-06          0.00847285
  1.048e-06          0.00812428
  1.049e-06          0.00780646
  1.05e-06          0.00744469
  1.051e-06          0.00711816
  1.052e-06          0.00681381
  1.053e-06          0.00651009
  1.054e-06          0.00619977
  1.055e-06          0.00590165
  1.056e-06          0.00562361
  1.057e-06          0.00534812
  1.058e-06          0.00505992
  1.059e-06          0.00480488
  1.06e-06          0.00455464
  1.061e-06          0.00432179
  1.062e-06          0.00407317
  1.063e-06          0.00384936
  1.064e-06          0.00363037
  1.065e-06          0.00341523
  1.066e-06          0.00320841
  1.067e-06          0.00300607
  1.068e-06          0.00282686
  1.069e-06          0.00261376
  1.07e-06          0.0024701
  1.071e-06          0.00230799
  1.072e-06          0.00216028
  1.073e-06          0.00200491
  1.074e-06          0.00187826
  1.075e-06          0.00175105
  1.076e-06          0.00163333
  1.077e-06          0.00151936
  1.078e-06          0.00141138
  1.079e-06          0.00130867
  1.08e-06          0.00121091
  1.081e-06          0.00111784
  1.082e-06          0.00102474
  1.083e-06          0.000941125
  1.084e-06          0.000858377
  1.085e-06          0.000780163
  1.086e-06          0.000691706
  1.087e-06          0.000633449
  1.088e-06          0.000567111
  1.089e-06          0.000502486
  1.09e-06          0.000445226
  1.091e-06          0.000387864
  1.092e-06          0.000331721
  1.093e-06          0.000285524
  1.094e-06          0.000240705
  1.095e-06          0.000196515
  1.096e-06          0.000133073
  1.097e-06          0.00012855
  1.098e-06          9.55478e-06
  1.099e-06          0
