#####################################################################
#  MagAO-X Filter Curve
#
# magaox_sci2-ch4-cont_bs-65-35_scibs-5050.dat
#
# Science CH4 Continuum bandpass with 65/35 B/S, without atmosphere
#
# Characteristics:
#    lambda_0:  9.2423e-07 [central wavelength, in m]
#    w_eff:     2.5342e-08 [effective width, in m]
#    FWHM:      2.59449e-08 [full-width at half max., in m]
#    Trans_max: 0.0375029 [maximum transmission]
#
# Vega Zero Point Flux Densities (calculated):
#    f_lambda_0: 0.00807026 [W/m^3 above atm]
#    f_nu_0:     2298.83 [Jy above atm]
#    f_phot_0:   3.75418e+16 [photons/s/m^3 above atm]
#
# Vega Zero Point Fluxes (calculated):
#    F_W_0: 6.21573e-09 [W at telescope aperture]
#    F_phot_0:   1.08439e+09 [photons/s at detector]
#
#####################################################################
# lambda [m]             transmission
#-------------------------------------------------
  9.016e-07          0
  9.017e-07          1.26374e-07
  9.018e-07          2.52691e-07
  9.019e-07          3.7895e-07
  9.02e-07          5.05187e-07
  9.021e-07          6.31361e-07
  9.022e-07          7.57486e-07
  9.023e-07          9.61626e-06
  9.024e-07          1.84738e-05
  9.025e-07          2.73301e-05
  9.026e-07          3.61851e-05
  9.027e-07          4.49861e-05
  9.028e-07          5.37651e-05
  9.029e-07          6.2522e-05
  9.03e-07          7.56489e-05
  9.031e-07          8.87963e-05
  9.032e-07          0.000101927
  9.033e-07          0.00011504
  9.034e-07          0.000128202
  9.035e-07          0.000141361
  9.036e-07          0.000154516
  9.037e-07          0.000174974
  9.038e-07          0.000195437
  9.039e-07          0.000215897
  9.04e-07          0.000226134
  9.041e-07          0.000236336
  9.042e-07          0.000246534
  9.043e-07          0.000256728
  9.044e-07          0.00026695
  9.045e-07          0.000277171
  9.046e-07          0.000290302
  9.047e-07          0.000303431
  9.048e-07          0.000316061
  9.049e-07          0.000328646
  9.05e-07          0.000341188
  9.051e-07          0.000353729
  9.052e-07          0.000366548
  9.053e-07          0.000383484
  9.054e-07          0.000400396
  9.055e-07          0.000417581
  9.056e-07          0.000434766
  9.057e-07          0.000451953
  9.058e-07          0.00046914
  9.059e-07          0.000486327
  9.06e-07          0.000516862
  9.061e-07          0.000547367
  9.062e-07          0.00057787
  9.063e-07          0.000608137
  9.064e-07          0.000638379
  9.065e-07          0.000675002
  9.066e-07          0.000711629
  9.067e-07          0.000748259
  9.068e-07          0.000784892
  9.069e-07          0.000821527
  9.07e-07          0.000880908
  9.071e-07          0.000940098
  9.072e-07          0.000999068
  9.073e-07          0.00104916
  9.074e-07          0.00109922
  9.075e-07          0.00114974
  9.076e-07          0.00122286
  9.077e-07          0.00129638
  9.078e-07          0.00136933
  9.079e-07          0.00144227
  9.08e-07          0.00151538
  9.081e-07          0.00158844
  9.082e-07          0.0016615
  9.083e-07          0.00190912
  9.084e-07          0.00215589
  9.085e-07          0.00240244
  9.086e-07          0.00255134
  9.087e-07          0.00270024
  9.088e-07          0.00284914
  9.089e-07          0.00307417
  9.09e-07          0.00329919
  9.091e-07          0.00351606
  9.092e-07          0.00373189
  9.093e-07          0.00396458
  9.094e-07          0.0042042
  9.095e-07          0.00444361
  9.096e-07          0.00499154
  9.097e-07          0.005539
  9.098e-07          0.00608841
  9.099e-07          0.00671452
  9.1e-07          0.00734178
  9.101e-07          0.00796869
  9.102e-07          0.00846787
  9.103e-07          0.0089669
  9.104e-07          0.00946579
  9.105e-07          0.0103673
  9.106e-07          0.0112688
  9.107e-07          0.0121704
  9.108e-07          0.0130722
  9.109e-07          0.0143125
  9.11e-07          0.0155516
  9.111e-07          0.0167894
  9.112e-07          0.0171017
  9.113e-07          0.0174137
  9.114e-07          0.0177254
  9.115e-07          0.0189525
  9.116e-07          0.0201852
  9.117e-07          0.0214178
  9.118e-07          0.0226502
  9.119e-07          0.0238605
  9.12e-07          0.0250706
  9.121e-07          0.0262809
  9.122e-07          0.0272273
  9.123e-07          0.0281374
  9.124e-07          0.0289693
  9.125e-07          0.0297988
  9.126e-07          0.0306653
  9.127e-07          0.0315317
  9.128e-07          0.0318205
  9.129e-07          0.0321092
  9.13e-07          0.032356
  9.131e-07          0.0326013
  9.132e-07          0.0329571
  9.133e-07          0.0333415
  9.134e-07          0.0337255
  9.135e-07          0.0342962
  9.136e-07          0.0348662
  9.137e-07          0.0354453
  9.138e-07          0.0356078
  9.139e-07          0.0357702
  9.14e-07          0.0359374
  9.141e-07          0.0361052
  9.142e-07          0.036273
  9.143e-07          0.0364407
  9.144e-07          0.0365606
  9.145e-07          0.0369265
  9.146e-07          0.0372911
  9.147e-07          0.0373365
  9.148e-07          0.0373818
  9.149e-07          0.0374272
  9.15e-07          0.0374725
  9.151e-07          0.0374661
  9.152e-07          0.0374597
  9.153e-07          0.0374532
  9.154e-07          0.0374468
  9.155e-07          0.0374528
  9.156e-07          0.0374587
  9.157e-07          0.0374647
  9.158e-07          0.0374653
  9.159e-07          0.0374659
  9.16e-07          0.0374833
  9.161e-07          0.0375009
  9.162e-07          0.0375029
  9.163e-07          0.037488
  9.164e-07          0.0374411
  9.165e-07          0.0373941
  9.166e-07          0.0373471
  9.167e-07          0.0373
  9.168e-07          0.0373019
  9.169e-07          0.0373038
  9.17e-07          0.0373057
  9.171e-07          0.0373282
  9.172e-07          0.0373172
  9.173e-07          0.037306
  9.174e-07          0.0372644
  9.175e-07          0.0372228
  9.176e-07          0.0372095
  9.177e-07          0.0371962
  9.178e-07          0.0371829
  9.179e-07          0.0371748
  9.18e-07          0.0371667
  9.181e-07          0.0371526
  9.182e-07          0.0371386
  9.183e-07          0.0371043
  9.184e-07          0.0370701
  9.185e-07          0.0370197
  9.186e-07          0.0369693
  9.187e-07          0.0369245
  9.188e-07          0.0368796
  9.189e-07          0.0368347
  9.19e-07          0.0368261
  9.191e-07          0.0368175
  9.192e-07          0.0368089
  9.193e-07          0.0368003
  9.194e-07          0.036752
  9.195e-07          0.0367038
  9.196e-07          0.0366555
  9.197e-07          0.0366654
  9.198e-07          0.0366753
  9.199e-07          0.0366853
  9.2e-07          0.0366952
  9.201e-07          0.0367002
  9.202e-07          0.0367052
  9.203e-07          0.0367101
  9.204e-07          0.0367157
  9.205e-07          0.0367212
  9.206e-07          0.0367264
  9.207e-07          0.0367315
  9.208e-07          0.0366651
  9.209e-07          0.0365985
  9.21e-07          0.0365319
  9.211e-07          0.0365365
  9.212e-07          0.0365412
  9.213e-07          0.0365458
  9.214e-07          0.0365504
  9.215e-07          0.0365074
  9.216e-07          0.0364581
  9.217e-07          0.0364088
  9.218e-07          0.036405
  9.219e-07          0.0364011
  9.22e-07          0.0363972
  9.221e-07          0.0363941
  9.222e-07          0.036388
  9.223e-07          0.0363819
  9.224e-07          0.0363757
  9.225e-07          0.0363749
  9.226e-07          0.036374
  9.227e-07          0.0363732
  9.228e-07          0.0363723
  9.229e-07          0.0363212
  9.23e-07          0.0362701
  9.231e-07          0.036218
  9.232e-07          0.0361659
  9.233e-07          0.0361374
  9.234e-07          0.0361088
  9.235e-07          0.0360803
  9.236e-07          0.0360761
  9.237e-07          0.0360718
  9.238e-07          0.0360676
  9.239e-07          0.0360634
  9.24e-07          0.0360561
  9.241e-07          0.0360499
  9.242e-07          0.0360437
  9.243e-07          0.0360376
  9.244e-07          0.0360556
  9.245e-07          0.0360737
  9.246e-07          0.0360729
  9.247e-07          0.036072
  9.248e-07          0.0360786
  9.249e-07          0.0360852
  9.25e-07          0.0360249
  9.251e-07          0.0359625
  9.252e-07          0.0358999
  9.253e-07          0.0358372
  9.254e-07          0.0358115
  9.255e-07          0.0357857
  9.256e-07          0.0357525
  9.257e-07          0.0357493
  9.258e-07          0.035746
  9.259e-07          0.0357428
  9.26e-07          0.0357396
  9.261e-07          0.0357325
  9.262e-07          0.0357257
  9.263e-07          0.0357189
  9.264e-07          0.0357121
  9.265e-07          0.0357112
  9.266e-07          0.0357104
  9.267e-07          0.0357126
  9.268e-07          0.0357148
  9.269e-07          0.035717
  9.27e-07          0.0357192
  9.271e-07          0.0356735
  9.272e-07          0.0356277
  9.273e-07          0.0355819
  9.274e-07          0.0355361
  9.275e-07          0.0355145
  9.276e-07          0.0354927
  9.277e-07          0.0354709
  9.278e-07          0.0354491
  9.279e-07          0.0354405
  9.28e-07          0.0354318
  9.281e-07          0.0354241
  9.282e-07          0.0354172
  9.283e-07          0.0354102
  9.284e-07          0.035409
  9.285e-07          0.0354077
  9.286e-07          0.0353853
  9.287e-07          0.0353629
  9.288e-07          0.0353615
  9.289e-07          0.0353602
  9.29e-07          0.0353589
  9.291e-07          0.0353573
  9.292e-07          0.0353558
  9.293e-07          0.0352546
  9.294e-07          0.0351477
  9.295e-07          0.0350446
  9.296e-07          0.0350215
  9.297e-07          0.0349984
  9.298e-07          0.0349753
  9.299e-07          0.0349521
  9.3e-07          0.0349399
  9.301e-07          0.0349271
  9.302e-07          0.0349181
  9.303e-07          0.0349122
  9.304e-07          0.0349064
  9.305e-07          0.0349005
  9.306e-07          0.0348946
  9.307e-07          0.0348677
  9.308e-07          0.0348408
  9.309e-07          0.0348337
  9.31e-07          0.0348266
  9.311e-07          0.034821
  9.312e-07          0.0348154
  9.313e-07          0.0348098
  9.314e-07          0.034726
  9.315e-07          0.034649
  9.316e-07          0.0345719
  9.317e-07          0.0345531
  9.318e-07          0.0345342
  9.319e-07          0.0345154
  9.32e-07          0.0344965
  9.321e-07          0.0344901
  9.322e-07          0.0344837
  9.323e-07          0.0344831
  9.324e-07          0.0344825
  9.325e-07          0.0344786
  9.326e-07          0.0344748
  9.327e-07          0.0344709
  9.328e-07          0.0344726
  9.329e-07          0.0344743
  9.33e-07          0.0344759
  9.331e-07          0.0344793
  9.332e-07          0.0344925
  9.333e-07          0.0345001
  9.334e-07          0.0344931
  9.335e-07          0.034407
  9.336e-07          0.0343208
  9.337e-07          0.0342346
  9.338e-07          0.0340967
  9.339e-07          0.0339971
  9.34e-07          0.0338977
  9.341e-07          0.0337969
  9.342e-07          0.0337215
  9.343e-07          0.0336462
  9.344e-07          0.033423
  9.345e-07          0.0332054
  9.346e-07          0.0329878
  9.347e-07          0.0328593
  9.348e-07          0.0327307
  9.349e-07          0.0326023
  9.35e-07          0.0324738
  9.351e-07          0.0319612
  9.352e-07          0.0314485
  9.353e-07          0.0309278
  9.354e-07          0.0306655
  9.355e-07          0.0304034
  9.356e-07          0.0301043
  9.357e-07          0.0296092
  9.358e-07          0.0291153
  9.359e-07          0.0286229
  9.36e-07          0.0281321
  9.361e-07          0.0276412
  9.362e-07          0.0271557
  9.363e-07          0.0266707
  9.364e-07          0.0259488
  9.365e-07          0.0252278
  9.366e-07          0.0245825
  9.367e-07          0.023937
  9.368e-07          0.0232912
  9.369e-07          0.0226452
  9.37e-07          0.0219043
  9.371e-07          0.0211568
  9.372e-07          0.0204097
  9.373e-07          0.0196627
  9.374e-07          0.0189535
  9.375e-07          0.0182443
  9.376e-07          0.017535
  9.377e-07          0.0162564
  9.378e-07          0.0149445
  9.379e-07          0.0136382
  9.38e-07          0.012386
  9.381e-07          0.011163
  9.382e-07          0.00994014
  9.383e-07          0.00973898
  9.384e-07          0.00953786
  9.385e-07          0.00931289
  9.386e-07          0.00908896
  9.387e-07          0.00786195
  9.388e-07          0.0066351
  9.389e-07          0.00628936
  9.39e-07          0.00594367
  9.391e-07          0.00559801
  9.392e-07          0.00525126
  9.393e-07          0.00503137
  9.394e-07          0.00481159
  9.395e-07          0.00459239
  9.396e-07          0.00427052
  9.397e-07          0.0039485
  9.398e-07          0.00362629
  9.399e-07          0.00329526
  9.4e-07          0.00305961
  9.401e-07          0.00282487
  9.402e-07          0.00259711
  9.403e-07          0.00247596
  9.404e-07          0.00235485
  9.405e-07          0.00223378
  9.406e-07          0.00213535
  9.407e-07          0.00203707
  9.408e-07          0.00193894
  9.409e-07          0.00184095
  9.41e-07          0.00174141
  9.411e-07          0.0016422
  9.412e-07          0.00154333
  9.413e-07          0.0014343
  9.414e-07          0.00132544
  9.415e-07          0.00121675
  9.416e-07          0.00112459
  9.417e-07          0.00103302
  9.418e-07          0.000941514
  9.419e-07          0.000905793
  9.42e-07          0.000870293
  9.421e-07          0.000834793
  9.422e-07          0.000799305
  9.423e-07          0.000791232
  9.424e-07          0.000783162
  9.425e-07          0.000775
  9.426e-07          0.000723702
  9.427e-07          0.000672073
  9.428e-07          0.000620526
  9.429e-07          0.000577743
  9.43e-07          0.000535
  9.431e-07          0.000491814
  9.432e-07          0.000476571
  9.433e-07          0.00046137
  9.434e-07          0.000446903
  9.435e-07          0.000432433
  9.436e-07          0.000417962
  9.437e-07          0.000403488
  9.438e-07          0.00038841
  9.439e-07          0.000359931
  9.44e-07          0.000331552
  9.441e-07          0.000303775
  9.442e-07          0.000288449
  9.443e-07          0.000273129
  9.444e-07          0.000257815
  9.445e-07          0.000242437
  9.446e-07          0.000227074
  9.447e-07          0.000211725
  9.448e-07          0.000200971
  9.449e-07          0.000190221
  9.45e-07          0.000179475
  9.451e-07          0.000168729
  9.452e-07          0.000157716
  9.453e-07          0.000146743
  9.454e-07          0.000135812
  9.455e-07          0.00013202
  9.456e-07          0.000128443
  9.457e-07          0.000124868
  9.458e-07          0.000121296
  9.459e-07          0.000117683
  9.46e-07          0.000114076
  9.461e-07          0.000110475
  9.462e-07          0.000105477
  9.463e-07          0.000100362
  9.464e-07          9.52669e-05
  9.465e-07          9.01911e-05
  9.466e-07          8.52079e-05
  9.467e-07          8.51302e-05
  9.468e-07          8.50524e-05
  9.469e-07          8.50627e-05
  9.47e-07          8.50729e-05
  9.471e-07          8.50814e-05
  9.472e-07          8.5128e-05
  9.473e-07          8.51815e-05
  9.474e-07          8.52349e-05
  9.475e-07          8.52569e-05
  9.476e-07          8.52787e-05
  9.477e-07          8.52752e-05
  9.478e-07          8.52566e-05
  9.479e-07          8.52379e-05
  9.48e-07          8.5203e-05
  9.481e-07          7.81799e-05
  9.482e-07          7.11665e-05
  9.483e-07          6.41628e-05
  9.484e-07          5.7024e-05
  9.485e-07          4.993e-05
  9.486e-07          4.30119e-05
  9.487e-07          3.60968e-05
  9.488e-07          3.61155e-05
  9.489e-07          3.61342e-05
  9.49e-07          3.61379e-05
  9.491e-07          3.61407e-05
  9.492e-07          3.61433e-05
  9.493e-07          3.61459e-05
  9.494e-07          3.61445e-05
  9.495e-07          3.60951e-05
  9.496e-07          3.60455e-05
  9.497e-07          3.59957e-05
  9.498e-07          3.6006e-05
  9.499e-07          3.60162e-05
  9.5e-07          3.60264e-05
  9.501e-07          3.60396e-05
  9.502e-07          3.59925e-05
  9.503e-07          3.59452e-05
  9.504e-07          3.58978e-05
  9.505e-07          3.58896e-05
  9.506e-07          3.58813e-05
  9.507e-07          3.5881e-05
  9.508e-07          3.58807e-05
  9.509e-07          3.58834e-05
  9.51e-07          3.5886e-05
  9.511e-07          3.59128e-05
  9.512e-07          3.59395e-05
  9.513e-07          3.59663e-05
  9.514e-07          3.59928e-05
  9.515e-07          3.60193e-05
  9.516e-07          3.5973e-05
  9.517e-07          3.59146e-05
  9.518e-07          3.58561e-05
  9.519e-07          3.58662e-05
  9.52e-07          3.58762e-05
  9.521e-07          3.58916e-05
  9.522e-07          3.59069e-05
  9.523e-07          3.58862e-05
  9.524e-07          3.58654e-05
  9.525e-07          3.58445e-05
  9.526e-07          3.581e-05
  9.527e-07          3.57716e-05
  9.528e-07          3.5733e-05
  9.529e-07          3.56943e-05
  9.53e-07          3.57022e-05
  9.531e-07          3.57087e-05
  9.532e-07          3.57152e-05
  9.533e-07          3.57158e-05
  9.534e-07          3.57203e-05
  9.535e-07          3.57246e-05
  9.536e-07          3.57129e-05
  9.537e-07          3.56823e-05
  9.538e-07          3.56516e-05
  9.539e-07          3.56207e-05
  9.54e-07          3.5586e-05
  9.541e-07          3.55889e-05
  9.542e-07          3.55917e-05
  9.543e-07          3.55945e-05
  9.544e-07          3.55636e-05
  9.545e-07          3.55327e-05
  9.546e-07          3.55016e-05
  9.547e-07          3.54679e-05
  9.548e-07          3.54341e-05
  9.549e-07          3.54001e-05
  9.55e-07          3.53661e-05
  9.551e-07          3.53787e-05
  9.552e-07          3.53914e-05
  9.553e-07          3.54002e-05
  9.554e-07          3.5409e-05
  9.555e-07          3.53806e-05
  9.556e-07          3.5358e-05
  9.557e-07          3.53352e-05
  9.558e-07          3.53017e-05
  9.559e-07          3.52681e-05
  9.56e-07          3.52381e-05
  9.561e-07          3.52081e-05
  9.562e-07          3.52187e-05
  9.563e-07          3.52292e-05
  9.564e-07          3.52397e-05
  9.565e-07          3.52201e-05
  9.566e-07          3.51972e-05
  9.567e-07          3.51742e-05
  9.568e-07          3.51403e-05
  9.569e-07          3.51063e-05
  9.57e-07          3.50722e-05
  9.571e-07          3.50385e-05
  9.572e-07          3.50534e-05
  9.573e-07          3.50714e-05
  9.574e-07          3.50895e-05
  9.575e-07          3.51015e-05
  9.576e-07          3.5071e-05
  9.577e-07          3.50403e-05
  9.578e-07          3.50096e-05
  9.579e-07          3.49723e-05
  9.58e-07          3.49327e-05
  9.581e-07          3.48918e-05
  9.582e-07          3.48509e-05
  9.583e-07          3.48547e-05
  9.584e-07          3.48585e-05
  9.585e-07          3.48681e-05
  9.586e-07          3.48773e-05
  9.587e-07          3.48207e-05
  9.588e-07          3.47639e-05
  9.589e-07          3.47645e-05
  9.59e-07          3.47651e-05
  9.591e-07          3.47431e-05
  9.592e-07          3.47209e-05
  9.593e-07          3.47024e-05
  9.594e-07          3.47111e-05
  9.595e-07          3.47141e-05
  9.596e-07          3.47171e-05
  9.597e-07          3.47045e-05
  9.598e-07          3.46918e-05
  9.599e-07          3.46754e-05
  9.6e-07          3.4659e-05
  9.601e-07          3.45851e-05
  9.602e-07          3.45111e-05
  9.603e-07          3.44369e-05
  9.604e-07          3.44453e-05
  9.605e-07          3.44536e-05
  9.606e-07          3.44655e-05
  9.607e-07          3.44774e-05
  9.608e-07          3.44085e-05
  9.609e-07          3.43394e-05
  9.61e-07          3.42741e-05
  9.611e-07          3.42093e-05
  9.612e-07          3.41408e-05
  9.613e-07          3.40722e-05
  9.614e-07          3.40034e-05
  9.615e-07          3.39688e-05
