#####################################################################
#  MagAO-X Filter Curve
#
# magaox_sci2-halpha_bs-halpha-ir_scibs-halpha_atm.dat
#
# Science H-alpha bandpass with H-alpha/IR B/S, with atmosphere
#
# Characteristics:
#    lambda_0:  6.56424e-07 [central wavelength, in m]
#    w_eff:     8.52282e-09 [effective width, in m]
#    FWHM:      8.4707e-09 [full-width at half max., in m]
#    Trans_max: 0.229864 [maximum transmission]
#
# Vega Zero Point Flux Densities (calculated):
#    f_lambda_0: 0.0178848 [W/m^3 above atm]
#    f_nu_0:     2570.33 [Jy above atm]
#    f_phot_0:   5.90972e+16 [photons/s/m^3 above atm]
#
# Vega Zero Point Fluxes (calculated):
#    F_W_0: 4.63267e-09 [W at telescope aperture]
#    F_phot_0:   3.51873e+09 [photons/s at detector]
#
#####################################################################
# lambda [m]             transmission
#-------------------------------------------------
  6.4e-07          0
  6.401e-07          1.51284e-06
  6.402e-07          3.03262e-06
  6.403e-07          3.33696e-06
  6.404e-07          3.64253e-06
  6.405e-07          3.73278e-06
  6.406e-07          3.82328e-06
  6.407e-07          3.83019e-06
  6.408e-07          3.83829e-06
  6.409e-07          3.84638e-06
  6.41e-07          3.85341e-06
  6.411e-07          3.85645e-06
  6.412e-07          3.86055e-06
  6.413e-07          3.863e-06
  6.414e-07          3.8664e-06
  6.415e-07          3.90971e-06
  6.416e-07          4.06297e-06
  6.417e-07          4.38811e-06
  6.418e-07          4.83297e-06
  6.419e-07          5.10922e-06
  6.42e-07          5.32809e-06
  6.421e-07          5.66953e-06
  6.422e-07          5.91344e-06
  6.423e-07          6.15734e-06
  6.424e-07          6.44585e-06
  6.425e-07          6.73435e-06
  6.426e-07          7.0233e-06
  6.427e-07          7.31222e-06
  6.428e-07          7.83288e-06
  6.429e-07          8.27492e-06
  6.43e-07          8.68339e-06
  6.431e-07          9.17303e-06
  6.432e-07          9.54916e-06
  6.433e-07          9.9426e-06
  6.434e-07          1.0347e-05
  6.435e-07          1.07733e-05
  6.436e-07          1.13681e-05
  6.437e-07          1.18329e-05
  6.438e-07          1.23153e-05
  6.439e-07          1.28148e-05
  6.44e-07          1.33424e-05
  6.441e-07          1.40899e-05
  6.442e-07          1.50715e-05
  6.443e-07          1.57638e-05
  6.444e-07          1.64548e-05
  6.445e-07          1.71477e-05
  6.446e-07          1.78395e-05
  6.447e-07          1.88378e-05
  6.448e-07          2.00236e-05
  6.449e-07          2.17302e-05
  6.45e-07          2.28889e-05
  6.451e-07          2.37703e-05
  6.452e-07          2.48084e-05
  6.453e-07          2.59417e-05
  6.454e-07          2.74995e-05
  6.455e-07          2.87423e-05
  6.456e-07          3.02556e-05
  6.457e-07          3.18344e-05
  6.458e-07          3.35033e-05
  6.459e-07          3.59965e-05
  6.46e-07          3.80647e-05
  6.461e-07          4.32444e-05
  6.462e-07          4.75006e-05
  6.463e-07          5.18447e-05
  6.464e-07          5.6495e-05
  6.465e-07          6.12334e-05
  6.466e-07          6.5745e-05
  6.467e-07          7.0317e-05
  6.468e-07          7.65506e-05
  6.469e-07          8.33293e-05
  6.47e-07          9.04638e-05
  6.471e-07          9.8472e-05
  6.472e-07          0.000110031
  6.473e-07          0.000118705
  6.474e-07          0.000129158
  6.475e-07          0.000142333
  6.476e-07          0.000155893
  6.477e-07          0.000174252
  6.478e-07          0.000189413
  6.479e-07          0.00020896
  6.48e-07          0.000238402
  6.481e-07          0.000260644
  6.482e-07          0.000295379
  6.483e-07          0.000334669
  6.484e-07          0.000373973
  6.485e-07          0.000409826
  6.486e-07          0.000445654
  6.487e-07          0.000497897
  6.488e-07          0.000551854
  6.489e-07          0.000616346
  6.49e-07          0.000722354
  6.491e-07          0.000817149
  6.492e-07          0.000925414
  6.493e-07          0.00104623
  6.494e-07          0.00118484
  6.495e-07          0.00139719
  6.496e-07          0.00158009
  6.497e-07          0.00180375
  6.498e-07          0.00217186
  6.499e-07          0.00243901
  6.5e-07          0.00280156
  6.501e-07          0.00327316
  6.502e-07          0.00376314
  6.503e-07          0.00475866
  6.504e-07          0.00557914
  6.505e-07          0.00639904
  6.506e-07          0.00728378
  6.507e-07          0.0081679
  6.508e-07          0.0100464
  6.509e-07          0.0119049
  6.51e-07          0.0139574
  6.511e-07          0.0164367
  6.512e-07          0.019535
  6.513e-07          0.0243513
  6.514e-07          0.0286917
  6.515e-07          0.0338767
  6.516e-07          0.0398925
  6.517e-07          0.0471035
  6.518e-07          0.058274
  6.519e-07          0.0681527
  6.52e-07          0.0793445
  6.521e-07          0.0948462
  6.522e-07          0.116745
  6.523e-07          0.131038
  6.524e-07          0.145327
  6.525e-07          0.157706
  6.526e-07          0.170083
  6.527e-07          0.179292
  6.528e-07          0.188501
  6.529e-07          0.199109
  6.53e-07          0.207523
  6.531e-07          0.21622
  6.532e-07          0.217677
  6.533e-07          0.222179
  6.534e-07          0.226774
  6.535e-07          0.229864
  6.536e-07          0.229827
  6.537e-07          0.22979
  6.538e-07          0.229752
  6.539e-07          0.229715
  6.54e-07          0.229678
  6.541e-07          0.229636
  6.542e-07          0.229624
  6.543e-07          0.229624
  6.544e-07          0.22963
  6.545e-07          0.229635
  6.546e-07          0.229593
  6.547e-07          0.229551
  6.548e-07          0.22951
  6.549e-07          0.229468
  6.55e-07          0.229427
  6.551e-07          0.229243
  6.552e-07          0.229061
  6.553e-07          0.228877
  6.554e-07          0.228694
  6.555e-07          0.228511
  6.556e-07          0.228272
  6.557e-07          0.228034
  6.558e-07          0.227795
  6.559e-07          0.227624
  6.56e-07          0.227453
  6.561e-07          0.227611
  6.562e-07          0.22774
  6.563e-07          0.227709
  6.564e-07          0.227677
  6.565e-07          0.227767
  6.566e-07          0.227856
  6.567e-07          0.228013
  6.568e-07          0.228171
  6.569e-07          0.228328
  6.57e-07          0.228486
  6.571e-07          0.228478
  6.572e-07          0.22847
  6.573e-07          0.228188
  6.574e-07          0.228124
  6.575e-07          0.227878
  6.576e-07          0.227746
  6.577e-07          0.227464
  6.578e-07          0.227456
  6.579e-07          0.227448
  6.58e-07          0.22744
  6.581e-07          0.227408
  6.582e-07          0.227376
  6.583e-07          0.227139
  6.584e-07          0.226971
  6.585e-07          0.226802
  6.586e-07          0.226633
  6.587e-07          0.226464
  6.588e-07          0.226364
  6.589e-07          0.226061
  6.59e-07          0.225915
  6.591e-07          0.225454
  6.592e-07          0.224993
  6.593e-07          0.224533
  6.594e-07          0.224073
  6.595e-07          0.22349
  6.596e-07          0.221539
  6.597e-07          0.217936
  6.598e-07          0.216055
  6.599e-07          0.212363
  6.6e-07          0.206091
  6.601e-07          0.196843
  6.602e-07          0.174612
  6.603e-07          0.161676
  6.604e-07          0.14891
  6.605e-07          0.135483
  6.606e-07          0.12222
  6.607e-07          0.110545
  6.608e-07          0.0989832
  6.609e-07          0.0833486
  6.61e-07          0.0721489
  6.611e-07          0.0604001
  6.612e-07          0.0475792
  6.613e-07          0.0394496
  6.614e-07          0.0325738
  6.615e-07          0.0270349
  6.616e-07          0.0226465
  6.617e-07          0.0179121
  6.618e-07          0.0149409
  6.619e-07          0.0125043
  6.62e-07          0.00976394
  6.621e-07          0.00778931
  6.622e-07          0.00658016
  6.623e-07          0.004601
  6.624e-07          0.00358034
  6.625e-07          0.0026814
  6.626e-07          0.00206575
  6.627e-07          0.00153008
  6.628e-07          0.00122224
  6.629e-07          0.000948916
  6.63e-07          0.000712029
  6.631e-07          0.000576713
  6.632e-07          0.000464044
  6.633e-07          0.000349394
  6.634e-07          0.000273046
  6.635e-07          0.000210613
  6.636e-07          0.000158305
  6.637e-07          0.000116844
  6.638e-07          7.65429e-05
  6.639e-07          4.61866e-05
  6.64e-07          3.08441e-05
  6.641e-07          2.6111e-05
  6.642e-07          2.35259e-05
  6.643e-07          2.12219e-05
  6.644e-07          1.7882e-05
  6.645e-07          1.62596e-05
  6.646e-07          1.4638e-05
  6.647e-07          1.35164e-05
  6.648e-07          1.23952e-05
  6.649e-07          1.13244e-05
  6.65e-07          1.03608e-05
  6.651e-07          9.33765e-06
  6.652e-07          8.48269e-06
  6.653e-07          7.49327e-06
  6.654e-07          6.61931e-06
  6.655e-07          6.25187e-06
  6.656e-07          5.81289e-06
  6.657e-07          5.18172e-06
  6.658e-07          4.76852e-06
  6.659e-07          4.36096e-06
  6.66e-07          4.01145e-06
  6.661e-07          3.71922e-06
  6.662e-07          3.35301e-06
  6.663e-07          2.94334e-06
  6.664e-07          2.72681e-06
  6.665e-07          2.51042e-06
  6.666e-07          2.33376e-06
  6.667e-07          2.15715e-06
  6.668e-07          2.03068e-06
  6.669e-07          1.90424e-06
  6.67e-07          1.72911e-06
  6.671e-07          1.61346e-06
  6.672e-07          1.5065e-06
  6.673e-07          1.40573e-06
  6.674e-07          1.31254e-06
  6.675e-07          1.20817e-06
  6.676e-07          1.14317e-06
  6.677e-07          1.07466e-06
  6.678e-07          9.89398e-07
  6.679e-07          9.32545e-07
  6.68e-07          8.76638e-07
  6.681e-07          8.29421e-07
  6.682e-07          7.85089e-07
  6.683e-07          7.22646e-07
  6.684e-07          6.56216e-07
  6.685e-07          6.23809e-07
  6.686e-07          5.91421e-07
  6.687e-07          5.7208e-07
  6.688e-07          5.52395e-07
  6.689e-07          5.37802e-07
  6.69e-07          5.12542e-07
  6.691e-07          4.784e-07
  6.692e-07          4.52666e-07
  6.693e-07          4.28422e-07
  6.694e-07          4.05374e-07
  6.695e-07          3.83663e-07
  6.696e-07          3.60553e-07
  6.697e-07          3.43541e-07
  6.698e-07          3.29604e-07
  6.699e-07          3.20622e-07
  6.7e-07          3.07699e-07
  6.701e-07          2.93054e-07
  6.702e-07          2.87575e-07
  6.703e-07          2.67477e-07
  6.704e-07          2.56184e-07
  6.705e-07          2.44952e-07
  6.706e-07          2.3069e-07
  6.707e-07          2.16664e-07
  6.708e-07          2.05356e-07
  6.709e-07          1.94229e-07
  6.71e-07          1.85012e-07
  6.711e-07          1.77489e-07
  6.712e-07          1.69081e-07
  6.713e-07          1.63303e-07
  6.714e-07          1.63386e-07
  6.715e-07          1.61483e-07
  6.716e-07          1.59231e-07
  6.717e-07          1.65057e-07
  6.718e-07          1.65004e-07
  6.719e-07          1.66437e-07
  6.72e-07          1.70805e-07
  6.721e-07          1.6758e-07
  6.722e-07          1.60353e-07
  6.723e-07          1.52307e-07
  6.724e-07          1.43574e-07
  6.725e-07          1.43582e-07
  6.726e-07          1.43503e-07
  6.727e-07          1.45455e-07
  6.728e-07          1.47406e-07
  6.729e-07          1.4972e-07
  6.73e-07          1.49426e-07
  6.731e-07          1.40816e-07
  6.732e-07          1.2453e-07
  6.733e-07          1.09783e-07
  6.734e-07          1.04474e-07
  6.735e-07          1.01497e-07
  6.736e-07          0
