#####################################################################
#  MagAO-X Filter Curve
#
# magaox_sci1-ip_bs-65-35_scibs-5050_atm.dat
#
# Science (camssci1) i' bandpass with 65/35 B/S, with atmosphere
#
# Characteristics:
#    lambda_0:  7.61583e-07 [central wavelength, in m]
#    w_eff:     1.25524e-07 [effective width, in m]
#    FWHM:      1.39948e-07 [full-width at half max., in m]
#    Trans_max: 0.0550513 [maximum transmission]
#
# Vega Zero Point Flux Densities (calculated):
#    f_lambda_0: 0.01346 [W/m^3 above atm]
#    f_nu_0:     2565 [Jy above atm]
#    f_phot_0:   5.11419e+16 [photons/s/m^3 above atm]
#
# Vega Zero Point Fluxes (calculated):
#    F_W_0: 5.13495e-08 [W at telescope aperture]
#    F_phot_0:   1.07408e+10 [photons/s at detector]
#
#####################################################################
# lambda [m]             transmission
#-------------------------------------------------
  4.999e-07          0
  5e-07          2.22298e-08
  5.001e-07          2.52722e-08
  5.002e-07          2.83256e-08
  5.003e-07          3.13871e-08
  5.004e-07          3.44591e-08
  5.005e-07          3.7551e-08
  5.006e-07          3.22572e-08
  5.007e-07          2.69423e-08
  5.008e-07          2.16061e-08
  5.009e-07          1.6249e-08
  5.01e-07          1.08706e-08
  5.011e-07          1.37318e-08
  5.012e-07          1.6598e-08
  5.013e-07          1.94724e-08
  5.014e-07          2.23547e-08
  5.015e-07          2.52451e-08
  5.016e-07          2.20158e-08
  5.017e-07          1.87774e-08
  5.018e-07          1.55298e-08
  5.019e-07          1.22731e-08
  5.02e-07          9.00718e-09
  5.021e-07          1.21625e-08
  5.022e-07          1.53302e-08
  5.023e-07          1.85103e-08
  5.024e-07          2.17053e-08
  5.025e-07          2.49135e-08
  5.026e-07          2.65553e-08
  5.027e-07          2.82044e-08
  5.028e-07          2.98608e-08
  5.029e-07          3.15237e-08
  5.03e-07          3.31872e-08
  5.031e-07          3.34897e-08
  5.032e-07          3.37931e-08
  5.033e-07          3.40938e-08
  5.034e-07          3.43954e-08
  5.035e-07          3.46979e-08
  5.036e-07          3.733e-08
  5.037e-07          3.99709e-08
  5.038e-07          4.26208e-08
  5.039e-07          4.52794e-08
  5.04e-07          4.7947e-08
  5.041e-07          4.32776e-08
  5.042e-07          3.85923e-08
  5.043e-07          3.38909e-08
  5.044e-07          2.91793e-08
  5.045e-07          2.44529e-08
  5.046e-07          2.52978e-08
  5.047e-07          2.61458e-08
  5.048e-07          2.69916e-08
  5.049e-07          2.78403e-08
  5.05e-07          2.86883e-08
  5.051e-07          2.82676e-08
  5.052e-07          2.78455e-08
  5.053e-07          2.74221e-08
  5.054e-07          2.70033e-08
  5.055e-07          2.65829e-08
  5.056e-07          2.93996e-08
  5.057e-07          3.22259e-08
  5.058e-07          3.50537e-08
  5.059e-07          3.78898e-08
  5.06e-07          4.07343e-08
  5.061e-07          3.89994e-08
  5.062e-07          3.72592e-08
  5.063e-07          3.55138e-08
  5.064e-07          3.37631e-08
  5.065e-07          3.20071e-08
  5.066e-07          3.22215e-08
  5.067e-07          3.24366e-08
  5.068e-07          3.26521e-08
  5.069e-07          3.28812e-08
  5.07e-07          3.3111e-08
  5.071e-07          3.17154e-08
  5.072e-07          3.03143e-08
  5.073e-07          2.89081e-08
  5.074e-07          2.74966e-08
  5.075e-07          2.60713e-08
  5.076e-07          2.80611e-08
  5.077e-07          3.00566e-08
  5.078e-07          3.20579e-08
  5.079e-07          3.40649e-08
  5.08e-07          3.60777e-08
  5.081e-07          3.39604e-08
  5.082e-07          3.18367e-08
  5.083e-07          2.97064e-08
  5.084e-07          2.75695e-08
  5.085e-07          2.54261e-08
  5.086e-07          2.50869e-08
  5.087e-07          2.47466e-08
  5.088e-07          2.44052e-08
  5.089e-07          2.40627e-08
  5.09e-07          2.3719e-08
  5.091e-07          2.44124e-08
  5.092e-07          2.51074e-08
  5.093e-07          2.58041e-08
  5.094e-07          2.65022e-08
  5.095e-07          2.72019e-08
  5.096e-07          3.13626e-08
  5.097e-07          3.55365e-08
  5.098e-07          3.97211e-08
  5.099e-07          4.39163e-08
  5.1e-07          4.81222e-08
  5.101e-07          4.45531e-08
  5.102e-07          4.09667e-08
  5.103e-07          3.73678e-08
  5.104e-07          3.37541e-08
  5.105e-07          3.01284e-08
  5.106e-07          3.28948e-08
  5.107e-07          3.56703e-08
  5.108e-07          3.84587e-08
  5.109e-07          4.12565e-08
  5.11e-07          4.40639e-08
  5.111e-07          4.30009e-08
  5.112e-07          4.1935e-08
  5.113e-07          4.08666e-08
  5.114e-07          3.97956e-08
  5.115e-07          3.87306e-08
  5.116e-07          3.54772e-08
  5.117e-07          3.22145e-08
  5.118e-07          2.89427e-08
  5.119e-07          2.56591e-08
  5.12e-07          2.2367e-08
  5.121e-07          2.51119e-08
  5.122e-07          2.78633e-08
  5.123e-07          3.06254e-08
  5.124e-07          3.33951e-08
  5.125e-07          3.61727e-08
  5.126e-07          3.34504e-08
  5.127e-07          3.07202e-08
  5.128e-07          2.7981e-08
  5.129e-07          2.52436e-08
  5.13e-07          2.24963e-08
  5.131e-07          2.72837e-08
  5.132e-07          3.20746e-08
  5.133e-07          3.68781e-08
  5.134e-07          4.16905e-08
  5.135e-07          4.65148e-08
  5.136e-07          4.47207e-08
  5.137e-07          4.29227e-08
  5.138e-07          4.11208e-08
  5.139e-07          3.93151e-08
  5.14e-07          3.75156e-08
  5.141e-07          3.59574e-08
  5.142e-07          3.4395e-08
  5.143e-07          3.2827e-08
  5.144e-07          3.12548e-08
  5.145e-07          2.96784e-08
  5.146e-07          3.14179e-08
  5.147e-07          3.31544e-08
  5.148e-07          3.48944e-08
  5.149e-07          3.66381e-08
  5.15e-07          3.83854e-08
  5.151e-07          3.70798e-08
  5.152e-07          3.57717e-08
  5.153e-07          3.4468e-08
  5.154e-07          3.31616e-08
  5.155e-07          3.18523e-08
  5.156e-07          2.98983e-08
  5.157e-07          2.79345e-08
  5.158e-07          2.59674e-08
  5.159e-07          2.39969e-08
  5.16e-07          2.20228e-08
  5.161e-07          2.06952e-08
  5.162e-07          1.93646e-08
  5.163e-07          1.8031e-08
  5.164e-07          1.66933e-08
  5.165e-07          1.53528e-08
  5.166e-07          1.88815e-08
  5.167e-07          2.24174e-08
  5.168e-07          2.59554e-08
  5.169e-07          2.94993e-08
  5.17e-07          3.30532e-08
  5.171e-07          3.40724e-08
  5.172e-07          3.50937e-08
  5.173e-07          3.61167e-08
  5.174e-07          3.7137e-08
  5.175e-07          3.81589e-08
  5.176e-07          3.54056e-08
  5.177e-07          3.26477e-08
  5.178e-07          2.9885e-08
  5.179e-07          2.71177e-08
  5.18e-07          2.43458e-08
  5.181e-07          2.67386e-08
  5.182e-07          2.91353e-08
  5.183e-07          3.1536e-08
  5.184e-07          3.39404e-08
  5.185e-07          3.63486e-08
  5.186e-07          3.84628e-08
  5.187e-07          4.05805e-08
  5.188e-07          4.27015e-08
  5.189e-07          4.48258e-08
  5.19e-07          4.69536e-08
  5.191e-07          4.99676e-08
  5.192e-07          5.29872e-08
  5.193e-07          5.60124e-08
  5.194e-07          5.90434e-08
  5.195e-07          6.20817e-08
  5.196e-07          5.54236e-08
  5.197e-07          4.87523e-08
  5.198e-07          4.2068e-08
  5.199e-07          3.53706e-08
  5.2e-07          2.86641e-08
  5.201e-07          3.32247e-08
  5.202e-07          3.77945e-08
  5.203e-07          4.23612e-08
  5.204e-07          4.69346e-08
  5.205e-07          5.15147e-08
  5.206e-07          4.69173e-08
  5.207e-07          4.23172e-08
  5.208e-07          3.77095e-08
  5.209e-07          3.3094e-08
  5.21e-07          2.84707e-08
  5.211e-07          2.87113e-08
  5.212e-07          2.89495e-08
  5.213e-07          2.91879e-08
  5.214e-07          2.94315e-08
  5.215e-07          2.96755e-08
  5.216e-07          3.29775e-08
  5.217e-07          3.62851e-08
  5.218e-07          3.95918e-08
  5.219e-07          4.29032e-08
  5.22e-07          4.62191e-08
  5.221e-07          4.28543e-08
  5.222e-07          3.94846e-08
  5.223e-07          3.61102e-08
  5.224e-07          3.27308e-08
  5.225e-07          2.93467e-08
  5.226e-07          3.23151e-08
  5.227e-07          3.52878e-08
  5.228e-07          3.82645e-08
  5.229e-07          4.12454e-08
  5.23e-07          4.42305e-08
  5.231e-07          4.32241e-08
  5.232e-07          4.22288e-08
  5.233e-07          4.12314e-08
  5.234e-07          4.0232e-08
  5.235e-07          3.92187e-08
  5.236e-07          3.58537e-08
  5.237e-07          3.24839e-08
  5.238e-07          2.91094e-08
  5.239e-07          2.57368e-08
  5.24e-07          2.23577e-08
  5.241e-07          2.33813e-08
  5.242e-07          2.44005e-08
  5.243e-07          2.5421e-08
  5.244e-07          2.6443e-08
  5.245e-07          2.74664e-08
  5.246e-07          3.13737e-08
  5.247e-07          3.52865e-08
  5.248e-07          3.92048e-08
  5.249e-07          4.31283e-08
  5.25e-07          4.70573e-08
  5.251e-07          4.43483e-08
  5.252e-07          4.16363e-08
  5.253e-07          3.89211e-08
  5.254e-07          3.62028e-08
  5.255e-07          3.34816e-08
  5.256e-07          3.00378e-08
  5.257e-07          2.65901e-08
  5.258e-07          2.31386e-08
  5.259e-07          1.96833e-08
  5.26e-07          1.62276e-08
  5.261e-07          2.02323e-08
  5.262e-07          2.4243e-08
  5.263e-07          2.82599e-08
  5.264e-07          3.22839e-08
  5.265e-07          3.63143e-08
  5.266e-07          4.03512e-08
  5.267e-07          4.43828e-08
  5.268e-07          4.84186e-08
  5.269e-07          5.24587e-08
  5.27e-07          5.65032e-08
  5.271e-07          5.39235e-08
  5.272e-07          5.1341e-08
  5.273e-07          4.87555e-08
  5.274e-07          4.61672e-08
  5.275e-07          4.35759e-08
  5.276e-07          4.44424e-08
  5.277e-07          4.53099e-08
  5.278e-07          4.61782e-08
  5.279e-07          4.70474e-08
  5.28e-07          4.79176e-08
  5.281e-07          4.62391e-08
  5.282e-07          4.45582e-08
  5.283e-07          4.28747e-08
  5.284e-07          4.11888e-08
  5.285e-07          3.95032e-08
  5.286e-07          3.72418e-08
  5.287e-07          3.4977e-08
  5.288e-07          3.27065e-08
  5.289e-07          3.04327e-08
  5.29e-07          2.81557e-08
  5.291e-07          3.11898e-08
  5.292e-07          3.42237e-08
  5.293e-07          3.72611e-08
  5.294e-07          4.02999e-08
  5.295e-07          4.33422e-08
  5.296e-07          4.05747e-08
  5.297e-07          3.78042e-08
  5.298e-07          3.50306e-08
  5.299e-07          3.22541e-08
  5.3e-07          2.94744e-08
  5.301e-07          2.91145e-08
  5.302e-07          2.87543e-08
  5.303e-07          2.83939e-08
  5.304e-07          2.80332e-08
  5.305e-07          2.76722e-08
  5.306e-07          2.99808e-08
  5.307e-07          3.22918e-08
  5.308e-07          3.46052e-08
  5.309e-07          3.69211e-08
  5.31e-07          3.9242e-08
  5.311e-07          3.49292e-08
  5.312e-07          3.0609e-08
  5.313e-07          2.62748e-08
  5.314e-07          2.19355e-08
  5.315e-07          1.75911e-08
  5.316e-07          2.0259e-08
  5.317e-07          2.29359e-08
  5.318e-07          2.56172e-08
  5.319e-07          2.83029e-08
  5.32e-07          3.09851e-08
  5.321e-07          3.42972e-08
  5.322e-07          3.76121e-08
  5.323e-07          4.09298e-08
  5.324e-07          4.42504e-08
  5.325e-07          4.75737e-08
  5.326e-07          4.79692e-08
  5.327e-07          4.8365e-08
  5.328e-07          4.87612e-08
  5.329e-07          4.91576e-08
  5.33e-07          4.95543e-08
  5.331e-07          4.65105e-08
  5.332e-07          4.34624e-08
  5.333e-07          4.04099e-08
  5.334e-07          3.73434e-08
  5.335e-07          3.42743e-08
  5.336e-07          3.40538e-08
  5.337e-07          3.38331e-08
  5.338e-07          3.36122e-08
  5.339e-07          3.33912e-08
  5.34e-07          3.31699e-08
  5.341e-07          3.62553e-08
  5.342e-07          3.93436e-08
  5.343e-07          4.24346e-08
  5.344e-07          4.55283e-08
  5.345e-07          4.86356e-08
  5.346e-07          4.89999e-08
  5.347e-07          4.93646e-08
  5.348e-07          4.97297e-08
  5.349e-07          5.00971e-08
  5.35e-07          5.04651e-08
  5.351e-07          4.89268e-08
  5.352e-07          4.73743e-08
  5.353e-07          4.58209e-08
  5.354e-07          4.42663e-08
  5.355e-07          4.27107e-08
  5.356e-07          3.94402e-08
  5.357e-07          3.61677e-08
  5.358e-07          3.28928e-08
  5.359e-07          2.96158e-08
  5.36e-07          2.63365e-08
  5.361e-07          3.00177e-08
  5.362e-07          3.37014e-08
  5.363e-07          3.73877e-08
  5.364e-07          4.10766e-08
  5.365e-07          4.47681e-08
  5.366e-07          4.28564e-08
  5.367e-07          4.09427e-08
  5.368e-07          3.9027e-08
  5.369e-07          3.71092e-08
  5.37e-07          3.5194e-08
  5.371e-07          3.66767e-08
  5.372e-07          3.8161e-08
  5.373e-07          3.96472e-08
  5.374e-07          4.11351e-08
  5.375e-07          4.26248e-08
  5.376e-07          4.48719e-08
  5.377e-07          4.71204e-08
  5.378e-07          4.93702e-08
  5.379e-07          5.16215e-08
  5.38e-07          5.38741e-08
  5.381e-07          5.5264e-08
  5.382e-07          5.6655e-08
  5.383e-07          5.80469e-08
  5.384e-07          5.94396e-08
  5.385e-07          6.08333e-08
  5.386e-07          5.90468e-08
  5.387e-07          5.72589e-08
  5.388e-07          5.54697e-08
  5.389e-07          5.36794e-08
  5.39e-07          5.18877e-08
  5.391e-07          4.8262e-08
  5.392e-07          4.46335e-08
  5.393e-07          4.10022e-08
  5.394e-07          3.73681e-08
  5.395e-07          3.37246e-08
  5.396e-07          3.77207e-08
  5.397e-07          4.17183e-08
  5.398e-07          4.57173e-08
  5.399e-07          4.97178e-08
  5.4e-07          5.37199e-08
  5.401e-07          4.90724e-08
  5.402e-07          4.44206e-08
  5.403e-07          3.97645e-08
  5.404e-07          3.51041e-08
  5.405e-07          3.04451e-08
  5.406e-07          3.2043e-08
  5.407e-07          3.3643e-08
  5.408e-07          3.52451e-08
  5.409e-07          3.68516e-08
  5.41e-07          3.84603e-08
  5.411e-07          3.72609e-08
  5.412e-07          3.6051e-08
  5.413e-07          3.48405e-08
  5.414e-07          3.36295e-08
  5.415e-07          3.2418e-08
  5.416e-07          3.95722e-08
  5.417e-07          4.67309e-08
  5.418e-07          5.38942e-08
  5.419e-07          6.10618e-08
  5.42e-07          6.82339e-08
  5.421e-07          6.51074e-08
  5.422e-07          6.19788e-08
  5.423e-07          5.8863e-08
  5.424e-07          5.57433e-08
  5.425e-07          5.26199e-08
  5.426e-07          4.71891e-08
  5.427e-07          4.17519e-08
  5.428e-07          3.63085e-08
  5.429e-07          3.08589e-08
  5.43e-07          2.53975e-08
  5.431e-07          2.69774e-08
  5.432e-07          2.85583e-08
  5.433e-07          3.01404e-08
  5.434e-07          3.17317e-08
  5.435e-07          3.33249e-08
  5.436e-07          3.46247e-08
  5.437e-07          3.59169e-08
  5.438e-07          3.72099e-08
  5.439e-07          3.85038e-08
  5.44e-07          3.97987e-08
  5.441e-07          3.39125e-08
  5.442e-07          2.80225e-08
  5.443e-07          2.21287e-08
  5.444e-07          1.62311e-08
  5.445e-07          1.03297e-08
  5.446e-07          1.23404e-08
  5.447e-07          1.43524e-08
  5.448e-07          1.63698e-08
  5.449e-07          1.83896e-08
  5.45e-07          2.04117e-08
  5.451e-07          2.16506e-08
  5.452e-07          2.28897e-08
  5.453e-07          2.41289e-08
  5.454e-07          2.53684e-08
  5.455e-07          2.66081e-08
  5.456e-07          2.91351e-08
  5.457e-07          3.16626e-08
  5.458e-07          3.41905e-08
  5.459e-07          3.67188e-08
  5.46e-07          3.92474e-08
  5.461e-07          3.96123e-08
  5.462e-07          3.99878e-08
  5.463e-07          4.03603e-08
  5.464e-07          4.07333e-08
  5.465e-07          4.11042e-08
  5.466e-07          3.38886e-08
  5.467e-07          2.66647e-08
  5.468e-07          1.94327e-08
  5.469e-07          1.21911e-08
  5.47e-07          4.94293e-09
  5.471e-07          1.71069e-08
  5.472e-07          2.92774e-08
  5.473e-07          4.14545e-08
  5.474e-07          5.3638e-08
  5.475e-07          6.58281e-08
  5.476e-07          6.1531e-08
  5.477e-07          5.72314e-08
  5.478e-07          5.29296e-08
  5.479e-07          4.86254e-08
  5.48e-07          4.43189e-08
  5.481e-07          4.17834e-08
  5.482e-07          3.92464e-08
  5.483e-07          3.67161e-08
  5.484e-07          3.41835e-08
  5.485e-07          3.16483e-08
  5.486e-07          3.8472e-08
  5.487e-07          4.52925e-08
  5.488e-07          5.21165e-08
  5.489e-07          5.89442e-08
  5.49e-07          6.57755e-08
  5.491e-07          6.00539e-08
  5.492e-07          5.43291e-08
  5.493e-07          4.86011e-08
  5.494e-07          4.28865e-08
  5.495e-07          3.71642e-08
  5.496e-07          3.70285e-08
  5.497e-07          3.68927e-08
  5.498e-07          3.67568e-08
  5.499e-07          3.66207e-08
  5.5e-07          3.64845e-08
  5.501e-07          4.32472e-08
  5.502e-07          5.0008e-08
  5.503e-07          5.6767e-08
  5.504e-07          6.35241e-08
  5.505e-07          7.02724e-08
  5.506e-07          6.29159e-08
  5.507e-07          5.55629e-08
  5.508e-07          4.82134e-08
  5.509e-07          4.08674e-08
  5.51e-07          3.35242e-08
  5.511e-07          3.57257e-08
  5.512e-07          3.79263e-08
  5.513e-07          4.01258e-08
  5.514e-07          4.23243e-08
  5.515e-07          4.45369e-08
  5.516e-07          4.09032e-08
  5.517e-07          3.72686e-08
  5.518e-07          3.36332e-08
  5.519e-07          2.99905e-08
  5.52e-07          2.63486e-08
  5.521e-07          3.06608e-08
  5.522e-07          3.4972e-08
  5.523e-07          3.92821e-08
  5.524e-07          4.35911e-08
  5.525e-07          4.7899e-08
  5.526e-07          4.8595e-08
  5.527e-07          4.92909e-08
  5.528e-07          4.99865e-08
  5.529e-07          5.0693e-08
  5.53e-07          5.13997e-08
  5.531e-07          4.69177e-08
  5.532e-07          4.24344e-08
  5.533e-07          3.79514e-08
  5.534e-07          3.3467e-08
  5.535e-07          2.8981e-08
  5.536e-07          2.77238e-08
  5.537e-07          2.64669e-08
  5.538e-07          2.52103e-08
  5.539e-07          2.39538e-08
  5.54e-07          2.27033e-08
  5.541e-07          3.06089e-08
  5.542e-07          3.85161e-08
  5.543e-07          4.64132e-08
  5.544e-07          5.43079e-08
  5.545e-07          6.22004e-08
  5.546e-07          5.68748e-08
  5.547e-07          5.15507e-08
  5.548e-07          4.62283e-08
  5.549e-07          4.09075e-08
  5.55e-07          3.55882e-08
  5.551e-07          3.44549e-08
  5.552e-07          3.33186e-08
  5.553e-07          3.21828e-08
  5.554e-07          3.10646e-08
  5.555e-07          2.99458e-08
  5.556e-07          3.57196e-08
  5.557e-07          4.14782e-08
  5.558e-07          4.72349e-08
  5.559e-07          5.29898e-08
  5.56e-07          5.87429e-08
  5.561e-07          5.43751e-08
  5.562e-07          5.00087e-08
  5.563e-07          4.56439e-08
  5.564e-07          4.12804e-08
  5.565e-07          3.69184e-08
  5.566e-07          4.27932e-08
  5.567e-07          4.86661e-08
  5.568e-07          5.45369e-08
  5.569e-07          6.04058e-08
  5.57e-07          6.62729e-08
  5.571e-07          6.02854e-08
  5.572e-07          5.43139e-08
  5.573e-07          4.83413e-08
  5.574e-07          4.23679e-08
  5.575e-07          3.63841e-08
  5.576e-07          4.17782e-08
  5.577e-07          4.71704e-08
  5.578e-07          5.25565e-08
  5.579e-07          5.79397e-08
