#####################################################################
#  MagAO-X Filter Curve
#
# magaox_sci1-ip_bs-65-35_scibs-open_atm.dat
#
# Science (camssci1) i' bandpass with 65/35 B/S, sci open, with atmosphere
#
# Characteristics:
#    lambda_0:  7.61562e-07 [central wavelength, in m]
#    w_eff:     1.25754e-07 [effective width, in m]
#    FWHM:      1.40088e-07 [full-width at half max., in m]
#    Trans_max: 0.112856 [maximum transmission]
#
# Vega Zero Point Flux Densities (calculated):
#    f_lambda_0: 0.0134618 [W/m^3 above atm]
#    f_nu_0:     2565.1 [Jy above atm]
#    f_phot_0:   5.11462e+16 [photons/s/m^3 above atm]
#
# Vega Zero Point Fluxes (calculated):
#    F_W_0: 5.14505e-08 [W at telescope aperture]
#    F_phot_0:   2.20611e+10 [photons/s at detector]
#
#####################################################################
# lambda [m]             transmission
#-------------------------------------------------
  4.999e-07          0
  5e-07          4.96201e-08
  5.001e-07          5.64089e-08
  5.002e-07          6.32216e-08
  5.003e-07          7.0052e-08
  5.004e-07          7.6905e-08
  5.005e-07          8.38022e-08
  5.006e-07          7.19851e-08
  5.007e-07          6.01218e-08
  5.008e-07          4.82123e-08
  5.009e-07          3.62568e-08
  5.01e-07          2.42549e-08
  5.011e-07          3.06375e-08
  5.012e-07          3.70311e-08
  5.013e-07          4.34421e-08
  5.014e-07          4.98705e-08
  5.015e-07          5.63162e-08
  5.016e-07          4.91105e-08
  5.017e-07          4.18849e-08
  5.018e-07          3.46394e-08
  5.019e-07          2.7374e-08
  5.02e-07          2.00889e-08
  5.021e-07          2.71253e-08
  5.022e-07          3.41886e-08
  5.023e-07          4.12789e-08
  5.024e-07          4.8402e-08
  5.025e-07          5.55539e-08
  5.026e-07          5.92125e-08
  5.027e-07          6.2887e-08
  5.028e-07          6.65774e-08
  5.029e-07          7.02823e-08
  5.03e-07          7.39881e-08
  5.031e-07          7.46594e-08
  5.032e-07          7.53326e-08
  5.033e-07          7.6e-08
  5.034e-07          7.66692e-08
  5.035e-07          7.73402e-08
  5.036e-07          8.32036e-08
  5.037e-07          8.90863e-08
  5.038e-07          9.49883e-08
  5.039e-07          1.0091e-07
  5.04e-07          1.0685e-07
  5.041e-07          9.64405e-08
  5.042e-07          8.59961e-08
  5.043e-07          7.55168e-08
  5.044e-07          6.50158e-08
  5.045e-07          5.44824e-08
  5.046e-07          5.63624e-08
  5.047e-07          5.82494e-08
  5.048e-07          6.01313e-08
  5.049e-07          6.20195e-08
  5.05e-07          6.3906e-08
  5.051e-07          6.29663e-08
  5.052e-07          6.20236e-08
  5.053e-07          6.10778e-08
  5.054e-07          6.01427e-08
  5.055e-07          5.92041e-08
  5.056e-07          6.54746e-08
  5.057e-07          7.17659e-08
  5.058e-07          7.80603e-08
  5.059e-07          8.43725e-08
  5.06e-07          9.07026e-08
  5.061e-07          8.68361e-08
  5.062e-07          8.29581e-08
  5.063e-07          7.90687e-08
  5.064e-07          7.51678e-08
  5.065e-07          7.12554e-08
  5.066e-07          7.173e-08
  5.067e-07          7.22057e-08
  5.068e-07          7.26825e-08
  5.069e-07          7.31896e-08
  5.07e-07          7.36982e-08
  5.071e-07          7.05887e-08
  5.072e-07          6.74678e-08
  5.073e-07          6.43354e-08
  5.074e-07          6.11916e-08
  5.075e-07          5.80174e-08
  5.076e-07          6.24428e-08
  5.077e-07          6.68806e-08
  5.078e-07          7.13308e-08
  5.079e-07          7.57935e-08
  5.08e-07          8.02685e-08
  5.081e-07          7.55549e-08
  5.082e-07          7.08271e-08
  5.083e-07          6.60851e-08
  5.084e-07          6.13289e-08
  5.085e-07          5.65585e-08
  5.086e-07          5.58018e-08
  5.087e-07          5.50427e-08
  5.088e-07          5.4281e-08
  5.089e-07          5.3517e-08
  5.09e-07          5.27505e-08
  5.091e-07          5.42905e-08
  5.092e-07          5.58338e-08
  5.093e-07          5.73806e-08
  5.094e-07          5.89308e-08
  5.095e-07          6.04843e-08
  5.096e-07          6.97325e-08
  5.097e-07          7.90098e-08
  5.098e-07          8.83101e-08
  5.099e-07          9.76331e-08
  5.1e-07          1.06979e-07
  5.101e-07          9.90409e-08
  5.102e-07          9.10647e-08
  5.103e-07          8.30613e-08
  5.104e-07          7.50257e-08
  5.105e-07          6.6964e-08
  5.106e-07          7.31099e-08
  5.107e-07          7.92751e-08
  5.108e-07          8.54686e-08
  5.109e-07          9.16828e-08
  5.11e-07          9.79177e-08
  5.111e-07          9.55513e-08
  5.112e-07          9.31792e-08
  5.113e-07          9.08015e-08
  5.114e-07          8.84181e-08
  5.115e-07          8.60485e-08
  5.116e-07          7.88171e-08
  5.117e-07          7.15658e-08
  5.118e-07          6.42947e-08
  5.119e-07          5.69981e-08
  5.12e-07          4.9683e-08
  5.121e-07          5.57781e-08
  5.122e-07          6.18868e-08
  5.123e-07          6.80189e-08
  5.124e-07          7.41676e-08
  5.125e-07          8.03329e-08
  5.126e-07          7.42843e-08
  5.127e-07          6.82185e-08
  5.128e-07          6.21332e-08
  5.129e-07          5.60523e-08
  5.13e-07          4.995e-08
  5.131e-07          6.05774e-08
  5.132e-07          7.12116e-08
  5.133e-07          8.18729e-08
  5.134e-07          9.25533e-08
  5.135e-07          1.03259e-07
  5.136e-07          9.92721e-08
  5.137e-07          9.5277e-08
  5.138e-07          9.12738e-08
  5.139e-07          8.72623e-08
  5.14e-07          8.32646e-08
  5.141e-07          7.98031e-08
  5.142e-07          7.63323e-08
  5.143e-07          7.28495e-08
  5.144e-07          6.93577e-08
  5.145e-07          6.58569e-08
  5.146e-07          6.97141e-08
  5.147e-07          7.35641e-08
  5.148e-07          7.74219e-08
  5.149e-07          8.12874e-08
  5.15e-07          8.51606e-08
  5.151e-07          8.22605e-08
  5.152e-07          7.93554e-08
  5.153e-07          7.64604e-08
  5.154e-07          7.35593e-08
  5.155e-07          7.06521e-08
  5.156e-07          6.63152e-08
  5.157e-07          6.19571e-08
  5.158e-07          5.75918e-08
  5.159e-07          5.32192e-08
  5.16e-07          4.88394e-08
  5.161e-07          4.58932e-08
  5.162e-07          4.29407e-08
  5.163e-07          3.99818e-08
  5.164e-07          3.70142e-08
  5.165e-07          3.40405e-08
  5.166e-07          4.18626e-08
  5.167e-07          4.97002e-08
  5.168e-07          5.75418e-08
  5.169e-07          6.53957e-08
  5.17e-07          7.32712e-08
  5.171e-07          7.55277e-08
  5.172e-07          7.77882e-08
  5.173e-07          8.00527e-08
  5.174e-07          8.23108e-08
  5.175e-07          8.45724e-08
  5.176e-07          7.8467e-08
  5.177e-07          7.23518e-08
  5.178e-07          6.62267e-08
  5.179e-07          6.00918e-08
  5.18e-07          5.39471e-08
  5.181e-07          5.9247e-08
  5.182e-07          6.4555e-08
  5.183e-07          6.98711e-08
  5.184e-07          7.51952e-08
  5.185e-07          8.05275e-08
  5.186e-07          8.52081e-08
  5.187e-07          8.98957e-08
  5.188e-07          9.45903e-08
  5.189e-07          9.9292e-08
  5.19e-07          1.04001e-07
  5.191e-07          1.10672e-07
  5.192e-07          1.17356e-07
  5.193e-07          1.24051e-07
  5.194e-07          1.30758e-07
  5.195e-07          1.37482e-07
  5.196e-07          1.22732e-07
  5.197e-07          1.07955e-07
  5.198e-07          9.31494e-08
  5.199e-07          7.83164e-08
  5.2e-07          6.34646e-08
  5.201e-07          7.35589e-08
  5.202e-07          8.36733e-08
  5.203e-07          9.37796e-08
  5.204e-07          1.039e-07
  5.205e-07          1.14034e-07
  5.206e-07          1.03853e-07
  5.207e-07          9.36672e-08
  5.208e-07          8.34648e-08
  5.209e-07          7.3246e-08
  5.21e-07          6.30108e-08
  5.211e-07          6.35409e-08
  5.212e-07          6.40653e-08
  5.213e-07          6.45902e-08
  5.214e-07          6.51267e-08
  5.215e-07          6.56641e-08
  5.216e-07          7.29674e-08
  5.217e-07          8.02828e-08
  5.218e-07          8.75956e-08
  5.219e-07          9.4918e-08
  5.22e-07          1.0225e-07
  5.221e-07          9.48022e-08
  5.222e-07          8.73443e-08
  5.223e-07          7.98764e-08
  5.224e-07          7.23983e-08
  5.225e-07          6.49102e-08
  5.226e-07          7.14731e-08
  5.227e-07          7.80446e-08
  5.228e-07          8.46247e-08
  5.229e-07          9.12135e-08
  5.23e-07          9.7811e-08
  5.231e-07          9.55815e-08
  5.232e-07          9.33769e-08
  5.233e-07          9.11678e-08
  5.234e-07          8.89543e-08
  5.235e-07          8.67105e-08
  5.236e-07          7.92674e-08
  5.237e-07          7.18143e-08
  5.238e-07          6.43514e-08
  5.239e-07          5.68935e-08
  5.24e-07          4.94217e-08
  5.241e-07          5.16823e-08
  5.242e-07          5.39329e-08
  5.243e-07          5.61864e-08
  5.244e-07          5.84428e-08
  5.245e-07          6.07021e-08
  5.246e-07          6.93348e-08
  5.247e-07          7.79788e-08
  5.248e-07          8.6634e-08
  5.249e-07          9.53005e-08
  5.25e-07          1.03978e-07
  5.251e-07          9.79884e-08
  5.252e-07          9.19923e-08
  5.253e-07          8.59899e-08
  5.254e-07          7.99812e-08
  5.255e-07          7.39662e-08
  5.256e-07          6.63557e-08
  5.257e-07          5.87372e-08
  5.258e-07          5.11107e-08
  5.259e-07          4.34764e-08
  5.26e-07          3.58422e-08
  5.261e-07          4.46856e-08
  5.262e-07          5.35417e-08
  5.263e-07          6.24104e-08
  5.264e-07          7.12945e-08
  5.265e-07          8.01919e-08
  5.266e-07          8.91026e-08
  5.267e-07          9.80011e-08
  5.268e-07          1.06908e-07
  5.269e-07          1.15824e-07
  5.27e-07          1.24749e-07
  5.271e-07          1.19049e-07
  5.272e-07          1.13343e-07
  5.273e-07          1.07631e-07
  5.274e-07          1.01913e-07
  5.275e-07          9.61885e-08
  5.276e-07          9.80973e-08
  5.277e-07          1.00008e-07
  5.278e-07          1.0192e-07
  5.279e-07          1.03835e-07
  5.28e-07          1.05751e-07
  5.281e-07          1.02042e-07
  5.282e-07          9.83289e-08
  5.283e-07          9.46102e-08
  5.284e-07          9.08864e-08
  5.285e-07          8.71633e-08
  5.286e-07          8.21704e-08
  5.287e-07          7.71701e-08
  5.288e-07          7.21577e-08
  5.289e-07          6.71386e-08
  5.29e-07          6.21127e-08
  5.291e-07          6.88034e-08
  5.292e-07          7.54928e-08
  5.293e-07          8.21897e-08
  5.294e-07          8.88892e-08
  5.295e-07          9.55954e-08
  5.296e-07          8.94879e-08
  5.297e-07          8.33742e-08
  5.298e-07          7.72543e-08
  5.299e-07          7.11281e-08
  5.3e-07          6.49957e-08
  5.301e-07          6.41994e-08
  5.302e-07          6.34026e-08
  5.303e-07          6.26054e-08
  5.304e-07          6.18076e-08
  5.305e-07          6.10093e-08
  5.306e-07          6.60963e-08
  5.307e-07          7.11883e-08
  5.308e-07          7.62853e-08
  5.309e-07          8.13873e-08
  5.31e-07          8.64998e-08
  5.311e-07          7.69901e-08
  5.312e-07          6.7465e-08
  5.313e-07          5.79096e-08
  5.314e-07          4.83438e-08
  5.315e-07          3.87678e-08
  5.316e-07          4.46454e-08
  5.317e-07          5.05425e-08
  5.318e-07          5.64489e-08
  5.319e-07          6.23646e-08
  5.32e-07          6.8272e-08
  5.321e-07          7.55667e-08
  5.322e-07          8.2867e-08
  5.323e-07          9.01729e-08
  5.324e-07          9.74845e-08
  5.325e-07          1.04802e-07
  5.326e-07          1.05669e-07
  5.327e-07          1.06536e-07
  5.328e-07          1.07405e-07
  5.329e-07          1.08274e-07
  5.33e-07          1.09143e-07
  5.331e-07          1.02435e-07
  5.332e-07          9.57179e-08
  5.333e-07          8.89918e-08
  5.334e-07          8.22355e-08
  5.335e-07          7.54735e-08
  5.336e-07          7.49851e-08
  5.337e-07          7.44962e-08
  5.338e-07          7.40069e-08
  5.339e-07          7.35172e-08
  5.34e-07          7.3027e-08
  5.341e-07          7.98168e-08
  5.342e-07          8.66121e-08
  5.343e-07          9.34129e-08
  5.344e-07          1.00219e-07
  5.345e-07          1.07055e-07
  5.346e-07          1.07852e-07
  5.347e-07          1.08651e-07
  5.348e-07          1.0945e-07
  5.349e-07          1.10254e-07
  5.35e-07          1.1106e-07
  5.351e-07          1.0767e-07
  5.352e-07          1.04249e-07
  5.353e-07          1.00827e-07
  5.354e-07          9.74021e-08
  5.355e-07          9.39754e-08
  5.356e-07          8.67761e-08
  5.357e-07          7.95725e-08
  5.358e-07          7.23646e-08
  5.359e-07          6.51525e-08
  5.36e-07          5.79361e-08
  5.361e-07          6.60313e-08
  5.362e-07          7.41316e-08
  5.363e-07          8.22369e-08
  5.364e-07          9.03472e-08
  5.365e-07          9.84627e-08
  5.366e-07          9.42543e-08
  5.367e-07          9.00418e-08
  5.368e-07          8.58253e-08
  5.369e-07          8.16047e-08
  5.37e-07          7.73899e-08
  5.371e-07          8.06469e-08
  5.372e-07          8.39075e-08
  5.373e-07          8.71717e-08
  5.374e-07          9.04396e-08
  5.375e-07          9.3711e-08
  5.376e-07          9.86474e-08
  5.377e-07          1.03586e-07
  5.378e-07          1.08528e-07
  5.379e-07          1.13472e-07
  5.38e-07          1.18419e-07
  5.381e-07          1.21469e-07
  5.382e-07          1.24522e-07
  5.383e-07          1.27576e-07
  5.384e-07          1.30631e-07
  5.385e-07          1.33689e-07
  5.386e-07          1.29757e-07
  5.387e-07          1.25824e-07
  5.388e-07          1.21887e-07
  5.389e-07          1.17948e-07
  5.39e-07          1.14007e-07
  5.391e-07          1.06036e-07
  5.392e-07          9.80602e-08
  5.393e-07          9.00786e-08
  5.394e-07          8.20914e-08
  5.395e-07          7.40844e-08
  5.396e-07          8.28594e-08
  5.397e-07          9.16369e-08
  5.398e-07          1.00417e-07
  5.399e-07          1.092e-07
  5.4e-07          1.17985e-07
  5.401e-07          1.07774e-07
  5.402e-07          9.75534e-08
  5.403e-07          8.73244e-08
  5.404e-07          7.70868e-08
  5.405e-07          6.68533e-08
  5.406e-07          7.03593e-08
  5.407e-07          7.38695e-08
  5.408e-07          7.7384e-08
  5.409e-07          8.0908e-08
  5.41e-07          8.44367e-08
  5.411e-07          8.18e-08
  5.412e-07          7.91407e-08
  5.413e-07          7.64804e-08
  5.414e-07          7.38192e-08
  5.415e-07          7.1157e-08
  5.416e-07          8.68568e-08
  5.417e-07          1.02565e-07
  5.418e-07          1.18282e-07
  5.419e-07          1.34008e-07
  5.42e-07          1.49742e-07
  5.421e-07          1.42875e-07
  5.422e-07          1.36004e-07
  5.423e-07          1.29162e-07
  5.424e-07          1.22311e-07
  5.425e-07          1.15453e-07
  5.426e-07          1.03533e-07
  5.427e-07          9.16005e-08
  5.428e-07          7.96549e-08
  5.429e-07          6.76967e-08
  5.43e-07          5.57135e-08
  5.431e-07          5.91769e-08
  5.432e-07          6.26423e-08
  5.433e-07          6.61099e-08
  5.434e-07          6.95975e-08
  5.435e-07          7.3089e-08
  5.436e-07          7.59367e-08
  5.437e-07          7.87674e-08
  5.438e-07          8.15998e-08
  5.439e-07          8.44339e-08
  5.44e-07          8.72698e-08
  5.441e-07          7.43597e-08
  5.442e-07          6.14423e-08
  5.443e-07          4.85176e-08
  5.444e-07          3.55856e-08
  5.445e-07          2.26464e-08
  5.446e-07          2.70534e-08
  5.447e-07          3.14628e-08
  5.448e-07          3.5884e-08
  5.449e-07          4.03099e-08
  5.45e-07          4.47405e-08
  5.451e-07          4.74541e-08
  5.452e-07          5.01679e-08
  5.453e-07          5.2882e-08
  5.454e-07          5.55962e-08
  5.455e-07          5.83107e-08
  5.456e-07          6.38461e-08
  5.457e-07          6.93819e-08
  5.458e-07          7.49183e-08
  5.459e-07          8.0455e-08
  5.46e-07          8.59922e-08
  5.461e-07          8.67882e-08
  5.462e-07          8.76073e-08
  5.463e-07          8.84199e-08
  5.464e-07          8.92335e-08
  5.465e-07          9.00423e-08
  5.466e-07          7.42328e-08
  5.467e-07          5.84067e-08
  5.468e-07          4.25639e-08
  5.469e-07          2.67014e-08
  5.47e-07          1.08257e-08
  5.471e-07          3.74651e-08
  5.472e-07          6.41167e-08
  5.473e-07          9.07805e-08
  5.474e-07          1.17456e-07
  5.475e-07          1.44145e-07
  5.476e-07          1.3473e-07
  5.477e-07          1.2531e-07
  5.478e-07          1.15887e-07
  5.479e-07          1.06459e-07
  5.48e-07          9.70262e-08
  5.481e-07          9.14715e-08
  5.482e-07          8.59143e-08
  5.483e-07          8.03721e-08
  5.484e-07          7.4825e-08
  5.485e-07          6.92728e-08
  5.486e-07          8.42055e-08
  5.487e-07          9.91298e-08
  5.488e-07          1.14061e-07
  5.489e-07          1.28999e-07
  5.49e-07          1.43943e-07
  5.491e-07          1.31417e-07
  5.492e-07          1.18884e-07
  5.493e-07          1.06346e-07
  5.494e-07          9.38376e-08
  5.495e-07          8.13138e-08
  5.496e-07          8.10137e-08
  5.497e-07          8.07133e-08
  5.498e-07          8.04127e-08
  5.499e-07          8.01119e-08
  5.5e-07          7.98108e-08
  5.501e-07          9.46004e-08
  5.502e-07          1.09385e-07
  5.503e-07          1.24164e-07
  5.504e-07          1.38938e-07
  5.505e-07          1.53692e-07
  5.506e-07          1.37597e-07
  5.507e-07          1.21511e-07
  5.508e-07          1.05434e-07
  5.509e-07          8.93662e-08
  5.51e-07          7.33056e-08
  5.511e-07          7.81166e-08
  5.512e-07          8.29249e-08
  5.513e-07          8.77305e-08
  5.514e-07          9.25336e-08
  5.515e-07          9.73672e-08
  5.516e-07          8.94194e-08
  5.517e-07          8.14705e-08
  5.518e-07          7.35205e-08
  5.519e-07          6.55551e-08
  5.52e-07          5.7592e-08
  5.521e-07          6.7015e-08
  5.522e-07          7.64348e-08
  5.523e-07          8.58515e-08
  5.524e-07          9.52651e-08
  5.525e-07          1.04675e-07
  5.526e-07          1.06192e-07
  5.527e-07          1.07709e-07
  5.528e-07          1.09224e-07
  5.529e-07          1.10764e-07
  5.53e-07          1.12303e-07
  5.531e-07          1.02506e-07
  5.532e-07          9.27077e-08
  5.533e-07          8.29102e-08
  5.534e-07          7.31103e-08
  5.535e-07          6.33079e-08
  5.536e-07          6.05593e-08
  5.537e-07          5.78115e-08
  5.538e-07          5.50643e-08
  5.539e-07          5.23179e-08
  5.54e-07          4.95848e-08
  5.541e-07          6.6848e-08
  5.542e-07          8.41136e-08
  5.543e-07          1.01356e-07
  5.544e-07          1.18591e-07
  5.545e-07          1.3582e-07
  5.546e-07          1.24186e-07
  5.547e-07          1.12557e-07
  5.548e-07          1.00932e-07
  5.549e-07          8.93111e-08
  5.55e-07          7.76947e-08
  5.551e-07          7.52175e-08
  5.552e-07          7.27339e-08
  5.553e-07          7.02518e-08
  5.554e-07          6.78082e-08
  5.555e-07          6.53634e-08
  5.556e-07          7.79627e-08
  5.557e-07          9.05281e-08
  5.558e-07          1.03088e-07
  5.559e-07          1.15644e-07
  5.56e-07          1.28194e-07
  5.561e-07          1.18657e-07
  5.562e-07          1.09125e-07
  5.563e-07          9.95961e-08
  5.564e-07          9.00714e-08
  5.565e-07          8.05506e-08
  5.566e-07          9.33648e-08
  5.567e-07          1.06174e-07
  5.568e-07          1.18977e-07
  5.569e-07          1.31776e-07
  5.57e-07          1.44569e-07
  5.571e-07          1.31502e-07
  5.572e-07          1.18472e-07
  5.573e-07          1.0544e-07
  5.574e-07          9.24072e-08
  5.575e-07          7.9353e-08
  5.576e-07          9.11139e-08
  5.577e-07          1.0287e-07
  5.578e-07          1.14611e-07
  5.579e-07          1.26345e-07
